# time (sweeps) | total free energy density
      0 14.089925
   2000 -63.064608
   4000 -89.500763
   6000 -102.809744
   8000 -113.671395
  10000 -122.001857
  12000 -127.438422
  14000 -132.258907
  16000 -136.696343
  18000 -140.625998
  20000 -144.051201
  22000 -147.076591
  24000 -149.781839
  26000 -152.051529
  28000 -154.156537
  30000 -155.992183
  32000 -157.654527
  34000 -159.177111
  36000 -160.588289
  38000 -162.117028
  40000 -163.532664
  42000 -164.762881
  44000 -165.870749
  46000 -166.878654
  48000 -167.800838
  50000 -168.640895
  52000 -169.427997
  54000 -170.197400
  56000 -170.972152
  58000 -171.729208
  60000 -172.438320
  62000 -173.077696
  64000 -173.644569
  66000 -174.169251
  68000 -174.704398
  70000 -175.290895
  72000 -175.914707
  74000 -176.534344
  76000 -177.119043
  78000 -177.672928
  80000 -178.202604
  82000 -178.723998
  84000 -179.254328
  86000 -179.790337
  88000 -180.331263
  90000 -180.867662
  92000 -181.392369
  94000 -181.909511
  96000 -182.417601
  98000 -182.928505
 100000 -183.445897
 102000 -183.963142
 104000 -184.473849
 106000 -184.979107
 108000 -185.478355
 110000 -185.956341
 112000 -186.410115
 114000 -186.877617
 116000 -187.386186
 118000 -187.913869
 120000 -188.421260
 122000 -188.956411
 124000 -189.895401
 126000 -190.712693
 128000 -191.138395
 130000 -191.476868
 132000 -191.771516
 134000 -192.039359
 136000 -192.431249
 138000 -192.892611
 140000 -193.345174
 142000 -193.704060
 144000 -194.029259
 146000 -194.330334
 148000 -194.609597
 150000 -194.874915
 152000 -195.128307
 154000 -195.370150
 156000 -195.598733
 158000 -195.817983
 160000 -196.031768
 162000 -196.236226
 164000 -196.435676
 166000 -196.628434
 168000 -196.810889
 170000 -196.985687
 172000 -197.149490
 174000 -197.304580
 176000 -197.455765
 178000 -197.600435
 180000 -197.738055
 182000 -197.871550
 184000 -198.000923
 186000 -198.125997
 188000 -198.261012
 190000 -198.555375
 192000 -198.881674
 194000 -199.133148
 196000 -199.340721
 198000 -199.522598
 200000 -199.685196
 202000 -199.832944
 204000 -199.969381
 206000 -200.096945
 208000 -200.217747
 210000 -200.332999
 212000 -200.442842
 214000 -200.547212
 216000 -200.646332
 218000 -200.740483
 220000 -200.829928
 222000 -200.915160
 224000 -200.996975
 226000 -201.076294
 228000 -201.153943
 230000 -201.230508
 232000 -201.306233
 234000 -201.381069
 236000 -201.454863
 238000 -201.527514
 240000 -201.598962
 242000 -201.669137
 244000 -201.737948
 246000 -201.805289
 248000 -201.871068
 250000 -201.935247
 252000 -201.997837
 254000 -202.058840
 256000 -202.118201
 258000 -202.175869
 260000 -202.231917
 262000 -202.286559
 264000 -202.340090
 266000 -202.392811
 268000 -202.444984
 270000 -202.496823
 272000 -202.548515
 274000 -202.600231
 276000 -202.652130
 278000 -202.704307
 280000 -202.756754
 282000 -202.809361
 284000 -202.861972
 286000 -202.914437
 288000 -202.966609
 290000 -203.018337
 292000 -203.069488
 294000 -203.119983
 296000 -203.169819
 298000 -203.219071
 300000 -203.267864
 302000 -203.316336
 304000 -203.364586
 306000 -203.412636
 308000 -203.460410
 310000 -203.507772
 312000 -203.554587
 314000 -203.600777
 316000 -203.646329
 318000 -203.691284
 320000 -203.735716
 322000 -203.779717
 324000 -203.823392
 326000 -203.866851
 328000 -203.910209
 330000 -203.953589
 332000 -203.997110
 334000 -204.040881
 336000 -204.084972
 338000 -204.129396
 340000 -204.174104
 342000 -204.219015
 344000 -204.264069
 346000 -204.309248
 348000 -204.354567
 350000 -204.400048
 352000 -204.445694
 354000 -204.491483
 356000 -204.537375
 358000 -204.583337
 360000 -204.629351
 362000 -204.675425
 364000 -204.721574
 366000 -204.767810
 368000 -204.814114
 370000 -204.860424
 372000 -204.906641
 374000 -204.952668
 376000 -204.998449
 378000 -205.043992
 380000 -205.089358
 382000 -205.134651
 384000 -205.179992
 386000 -205.225498
 388000 -205.271259
 390000 -205.317321
 392000 -205.363701
 394000 -205.410398
 396000 -205.457413
 398000 -205.504730
 400000 -205.552288
 402000 -205.599971
 404000 -205.647639
 406000 -205.695182
 408000 -205.742548
 410000 -205.789753
 412000 -205.836863
 414000 -205.883985
 416000 -205.931256
 418000 -205.978818
 420000 -206.026786
 422000 -206.075226
 424000 -206.124159
 426000 -206.173585
 428000 -206.223484
 430000 -206.273806
 432000 -206.324488
 434000 -206.375494
 436000 -206.426838
 438000 -206.478575
 440000 -206.530791
 442000 -206.583590
 444000 -206.637069
 446000 -206.691286
 448000 -206.746215
 450000 -206.801742
 452000 -206.857683
 454000 -206.913827
 456000 -206.969989
 458000 -207.026091
 460000 -207.082225
 462000 -207.138658
 464000 -207.195766
 466000 -207.253955
 468000 -207.313569
 470000 -207.374784
 472000 -207.437506
 474000 -207.501356
 476000 -207.565802
 478000 -207.630393
 480000 -207.694969
 482000 -207.759756
 484000 -207.825358
 486000 -207.892647
 488000 -207.962530
 490000 -208.035540
 492000 -208.111473
 494000 -208.189471
 496000 -208.268626
 498000 -208.348623
 500000 -208.430048
 502000 -208.514332
 504000 -208.603195
 506000 -208.697573
 508000 -208.797127
 510000 -208.901184
 512000 -209.010163
 514000 -209.126849
 516000 -209.255377
 518000 -209.398669
 520000 -209.561848
 522000 -209.758780
 524000 -210.034123
 526000 -210.833036
 528000 -211.170337
 530000 -211.295402
 532000 -211.357622
 534000 -211.395666
 536000 -211.424028
 538000 -211.448365
 540000 -211.470911
 542000 -211.492568
 544000 -211.513715
 546000 -211.534529
 548000 -211.555102
 550000 -211.575491
 552000 -211.595737
 554000 -211.615874
 556000 -211.635929
 558000 -211.655929
 560000 -211.675900
 562000 -211.695862
 564000 -211.715839
 566000 -211.735849
 568000 -211.755907
 570000 -211.776025
 572000 -211.796209
 574000 -211.816459
 576000 -211.836771
 578000 -211.857133
 580000 -211.877531
 582000 -211.897948
 584000 -211.918367
 586000 -211.938771
 588000 -211.959147
 590000 -211.979485
 592000 -211.999775
 594000 -212.020010
 596000 -212.040184
 598000 -212.060290
 600000 -212.080321
 602000 -212.100270
 604000 -212.120128
 606000 -212.139891
 608000 -212.159554
 610000 -212.179118
 612000 -212.198585
 614000 -212.217962
 616000 -212.237256
 618000 -212.256479
 620000 -212.275644
 622000 -212.294765
 624000 -212.313856
 626000 -212.332935
 628000 -212.352018
 630000 -212.371126
 632000 -212.390276
 634000 -212.409490
 636000 -212.428787
 638000 -212.448189
 640000 -212.467715
 642000 -212.487384
 644000 -212.507210
 646000 -212.527205
 648000 -212.547372
 650000 -212.567708
 652000 -212.588200
 654000 -212.608826
 656000 -212.629556
 658000 -212.650356
 660000 -212.671190
 662000 -212.692023
 664000 -212.712828
 666000 -212.733583
 668000 -212.754276
 670000 -212.774897
 672000 -212.795442
 674000 -212.815909
 676000 -212.836293
 678000 -212.856593
 680000 -212.876803
 682000 -212.896918
 684000 -212.916935
 686000 -212.936853
 688000 -212.956670
 690000 -212.976392
 692000 -212.996025
 694000 -213.015577
 696000 -213.035061
 698000 -213.054490
 700000 -213.073880
 702000 -213.093249
 704000 -213.112617
 706000 -213.132004
 708000 -213.151433
 710000 -213.170929
 712000 -213.190517
 714000 -213.210223
 716000 -213.230073
 718000 -213.250090
 720000 -213.270296
 722000 -213.290703
 724000 -213.311315
 726000 -213.332126
 728000 -213.353118
 730000 -213.374261
 732000 -213.395521
 734000 -213.416858
 736000 -213.438235
 738000 -213.459620
 740000 -213.480985
 742000 -213.502313
 744000 -213.523591
 746000 -213.544810
 748000 -213.565966
 750000 -213.587056
 752000 -213.608075
 754000 -213.629018
 756000 -213.649879
 758000 -213.670652
 760000 -213.691333
 762000 -213.711920
 764000 -213.732413
 766000 -213.752817
 768000 -213.773142
 770000 -213.793398
 772000 -213.813602
 774000 -213.833772
 776000 -213.853931
 778000 -213.874103
 780000 -213.894315
 782000 -213.914595
 784000 -213.934972
 786000 -213.955474
 788000 -213.976126
 790000 -213.996945
 792000 -214.017940
 794000 -214.039109
 796000 -214.060439
 798000 -214.081905
 800000 -214.103477
 802000 -214.125123
 804000 -214.146815
 806000 -214.168529
 808000 -214.190251
 810000 -214.211974
 812000 -214.233697
 814000 -214.255420
 816000 -214.277144
 818000 -214.298867
 820000 -214.320584
 822000 -214.342286
 824000 -214.363962
 826000 -214.385598
 828000 -214.407180
 830000 -214.428698
 832000 -214.450144
 834000 -214.471517
 836000 -214.492823
 838000 -214.514074
 840000 -214.535287
 842000 -214.556485
 844000 -214.577694
 846000 -214.598944
 848000 -214.620265
 850000 -214.641686
 852000 -214.663233
 854000 -214.684922
 856000 -214.706763
 858000 -214.728747
 860000 -214.750857
 862000 -214.773061
 864000 -214.795322
 866000 -214.817604
 868000 -214.839874
 870000 -214.862113
 872000 -214.884314
 874000 -214.906481
 876000 -214.928630
 878000 -214.950783
 880000 -214.972964
 882000 -214.995195
 884000 -215.017496
 886000 -215.039874
 888000 -215.062332
 890000 -215.084857
 892000 -215.107433
 894000 -215.130036
 896000 -215.152646
 898000 -215.175245
 900000 -215.197826
 902000 -215.220392
 904000 -215.242954
 906000 -215.265535
 908000 -215.288163
 910000 -215.310867
 912000 -215.333676
 914000 -215.356606
 916000 -215.379665
 918000 -215.402840
 920000 -215.426106
 922000 -215.449420
 924000 -215.472738
 926000 -215.496017
 928000 -215.519226
 930000 -215.542348
 932000 -215.565383
 934000 -215.588343
 936000 -215.611253
 938000 -215.634146
 940000 -215.657061
 942000 -215.680036
 944000 -215.703110
 946000 -215.726317
 948000 -215.749678
 950000 -215.773205
 952000 -215.796894
 954000 -215.820727
 956000 -215.844682
 958000 -215.868732
 960000 -215.892861
 962000 -215.917063
 964000 -215.941341
 966000 -215.965710
 968000 -215.990184
 970000 -216.014769
 972000 -216.039457
 974000 -216.064223
 976000 -216.089023
 978000 -216.113804
 980000 -216.138515
 982000 -216.163115
 984000 -216.187579
 986000 -216.211903
 988000 -216.236100
 990000 -216.260194
 992000 -216.284224
 994000 -216.308234
 996000 -216.332274
 998000 -216.356398
1000000 -216.380661
1002000 -216.405116
1004000 -216.429806
1006000 -216.454763
1008000 -216.480001
1010000 -216.505515
1012000 -216.531283
1014000 -216.557279
1016000 -216.583475
1018000 -216.609847
1020000 -216.636373
1022000 -216.663026
1024000 -216.689763
1026000 -216.716529
1028000 -216.743258
1030000 -216.769886
1032000 -216.796364
1034000 -216.822661
1036000 -216.848769
1038000 -216.874701
1040000 -216.900482
1042000 -216.926155
1044000 -216.951769
1046000 -216.977387
1048000 -217.003077
1050000 -217.028917
1052000 -217.054985
1054000 -217.081362
1056000 -217.108114
1058000 -217.135293
1060000 -217.162921
1062000 -217.190990
1064000 -217.219461
1066000 -217.248272
1068000 -217.277342
1070000 -217.306574
1072000 -217.335860
1074000 -217.365096
1076000 -217.394188
1078000 -217.423073
1080000 -217.451716
1082000 -217.480113
1084000 -217.508285
1086000 -217.536274
1088000 -217.564138
1090000 -217.591946
1092000 -217.619785
1094000 -217.647749
1096000 -217.675945
1098000 -217.704488
1100000 -217.733490
1102000 -217.763049
1104000 -217.793232
1106000 -217.824054
1108000 -217.855467
1110000 -217.887359
1112000 -217.919570
1114000 -217.951922
1116000 -217.984245
1118000 -218.016408
1120000 -218.048328
1122000 -218.079965
1124000 -218.111322
1126000 -218.142434
1128000 -218.173363
1130000 -218.204194
1132000 -218.235038
1134000 -218.266027
1136000 -218.297312
1138000 -218.329058
1140000 -218.361430
1142000 -218.394566
1144000 -218.428546
1146000 -218.463357
1148000 -218.498875
1150000 -218.534882
1152000 -218.571121
1154000 -218.607353
1156000 -218.643401
1158000 -218.679166
1160000 -218.714624
1162000 -218.749811
1164000 -218.784813
1166000 -218.819758
1168000 -218.854811
1170000 -218.890169
1172000 -218.926055
1174000 -218.962699
1176000 -219.000302
1178000 -219.038979
1180000 -219.078710
1182000 -219.119315
1184000 -219.160499
1186000 -219.201938
1188000 -219.243362
1190000 -219.284596
1192000 -219.325577
1194000 -219.366343
1196000 -219.407028
1198000 -219.447850
1200000 -219.489104
1202000 -219.531136
1204000 -219.574295
1206000 -219.618843
1208000 -219.664859
1210000 -219.712187
1212000 -219.760473
1214000 -219.809283
1216000 -219.858242
1218000 -219.907131
1220000 -219.955940
1222000 -220.004873
1224000 -220.054321
1226000 -220.104807
1228000 -220.156885
1230000 -220.210970
1232000 -220.267172
1234000 -220.325237
1236000 -220.384657
1238000 -220.444897
1240000 -220.505635
1242000 -220.566935
1244000 -220.629308
1246000 -220.693641
1248000 -220.760914
1250000 -220.831768
1252000 -220.906172
1254000 -220.983510
1256000 -221.063124
1258000 -221.145040
1260000 -221.230519
1262000 -221.321827
1264000 -221.420946
1266000 -221.528454
1268000 -221.644402
1270000 -221.771455
1272000 -221.917905
1274000 -222.096138
1276000 -222.334918
1278000 -222.928038
1280000 -223.451784
1282000 -223.618193
1284000 -223.705148
1286000 -223.754360
1288000 -223.783044
1290000 -223.800106
1292000 -223.810467
1294000 -223.816920
1296000 -223.821079
1298000 -223.823881
1300000 -223.825877
1302000 -223.827389
1304000 -223.828611
1306000 -223.829656
1308000 -223.830591
1310000 -223.831459
1312000 -223.832282
1314000 -223.833077
1316000 -223.833851
1318000 -223.834611
1320000 -223.835361
1322000 -223.836101
1324000 -223.836834
1326000 -223.837561
1328000 -223.838282
1330000 -223.838997
1332000 -223.839708
1334000 -223.840414
1336000 -223.841115
1338000 -223.841812
1340000 -223.842505
1342000 -223.843193
1344000 -223.843878
1346000 -223.844558
1348000 -223.845235
1350000 -223.845908
1352000 -223.846577
1354000 -223.847243
1356000 -223.847905
1358000 -223.848564
1360000 -223.849219
1362000 -223.849871
1364000 -223.850519
1366000 -223.851165
1368000 -223.851807
1370000 -223.852446
1372000 -223.853082
1374000 -223.853715
1376000 -223.854345
1378000 -223.854972
1380000 -223.855597
1382000 -223.856218
1384000 -223.856837
1386000 -223.857453
1388000 -223.858067
1390000 -223.858678
1392000 -223.859287
1394000 -223.859893
1396000 -223.860497
1398000 -223.861099
1400000 -223.861698
1402000 -223.862295
1404000 -223.862890
1406000 -223.863482
1408000 -223.864073
1410000 -223.864661
1412000 -223.865248
1414000 -223.865832
1416000 -223.866415
1418000 -223.866995
1420000 -223.867574
1422000 -223.868150
1424000 -223.868725
1426000 -223.869298
1428000 -223.869870
1430000 -223.870439
1432000 -223.871007
1434000 -223.871573
1436000 -223.872137
1438000 -223.872700
1440000 -223.873261
1442000 -223.873820
1444000 -223.874378
1446000 -223.874934
1448000 -223.875489
1450000 -223.876042
1452000 -223.876593
1454000 -223.877143
1456000 -223.877691
1458000 -223.878238
1460000 -223.878783
1462000 -223.879327
1464000 -223.879869
1466000 -223.880410
1468000 -223.880949
1470000 -223.881486
1472000 -223.882022
1474000 -223.882557
1476000 -223.883090
1478000 -223.883622
1480000 -223.884152
1482000 -223.884680
1484000 -223.885207
1486000 -223.885733
1488000 -223.886257
1490000 -223.886780
1492000 -223.887301
1494000 -223.887821
1496000 -223.888339
1498000 -223.888856
1500000 -223.889372
1502000 -223.889886
1504000 -223.890398
1506000 -223.890909
1508000 -223.891419
1510000 -223.891927
1512000 -223.892434
1514000 -223.892939
1516000 -223.893443
1518000 -223.893946
1520000 -223.894447
1522000 -223.894947
1524000 -223.895446
1526000 -223.895943
1528000 -223.896439
1530000 -223.896934
1532000 -223.897427
1534000 -223.897919
1536000 -223.898410
1538000 -223.898899
1540000 -223.899387
1542000 -223.899874
1544000 -223.900359
1546000 -223.900844
1548000 -223.901327
1550000 -223.901809
1552000 -223.902289
1554000 -223.902769
1556000 -223.903247
1558000 -223.903724
1560000 -223.904200
1562000 -223.904675
1564000 -223.905149
1566000 -223.905621
1568000 -223.906093
1570000 -223.906563
1572000 -223.907032
1574000 -223.907500
1576000 -223.907967
1578000 -223.908434
1580000 -223.908898
1582000 -223.909362
1584000 -223.909825
1586000 -223.910287
1588000 -223.910748
1590000 -223.911208
1592000 -223.911667
1594000 -223.912125
1596000 -223.912582
1598000 -223.913037
1600000 -223.913492
1602000 -223.913946
1604000 -223.914399
1606000 -223.914852
1608000 -223.915303
1610000 -223.915753
1612000 -223.916202
1614000 -223.916651
1616000 -223.917098
1618000 -223.917545
1620000 -223.917990
1622000 -223.918435
1624000 -223.918879
1626000 -223.919322
1628000 -223.919764
1630000 -223.920205
1632000 -223.920645
1634000 -223.921085
1636000 -223.921523
1638000 -223.921961
1640000 -223.922397
1642000 -223.922833
1644000 -223.923268
1646000 -223.923702
1648000 -223.924135
1650000 -223.924568
1652000 -223.924999
1654000 -223.925429
1656000 -223.925859
1658000 -223.926288
1660000 -223.926716
1662000 -223.927143
1664000 -223.927569
1666000 -223.927994
1668000 -223.928418
1670000 -223.928842
1672000 -223.929264
1674000 -223.929686
1676000 -223.930107
1678000 -223.930526
1680000 -223.930945
1682000 -223.931363
1684000 -223.931780
1686000 -223.932197
1688000 -223.932612
1690000 -223.933026
1692000 -223.933440
1694000 -223.933852
1696000 -223.934264
1698000 -223.934675
1700000 -223.935084
1702000 -223.935493
1704000 -223.935901
1706000 -223.936308
1708000 -223.936715
1710000 -223.937120
1712000 -223.937524
1714000 -223.937927
1716000 -223.938330
1718000 -223.938731
1720000 -223.939132
1722000 -223.939532
1724000 -223.939931
1726000 -223.940329
1728000 -223.940726
1730000 -223.941122
1732000 -223.941517
1734000 -223.941911
1736000 -223.942305
1738000 -223.942697
1740000 -223.943089
1742000 -223.943479
1744000 -223.943869
1746000 -223.944258
1748000 -223.944646
1750000 -223.945034
1752000 -223.945420
1754000 -223.945805
1756000 -223.946190
1758000 -223.946574
1760000 -223.946957
1762000 -223.947339
1764000 -223.947720
1766000 -223.948101
1768000 -223.948481
1770000 -223.948859
1772000 -223.949238
1774000 -223.949615
1776000 -223.949991
1778000 -223.950367
1780000 -223.950742
1782000 -223.951116
1784000 -223.951490
1786000 -223.951862
1788000 -223.952234
1790000 -223.952606
1792000 -223.952976
1794000 -223.953346
1796000 -223.953715
1798000 -223.954083
1800000 -223.954451
1802000 -223.954818
1804000 -223.955185
1806000 -223.955550
1808000 -223.955915
1810000 -223.956280
1812000 -223.956643
1814000 -223.957006
1816000 -223.957369
1818000 -223.957731
1820000 -223.958092
1822000 -223.958453
1824000 -223.958813
1826000 -223.959172
1828000 -223.959531
1830000 -223.959889
1832000 -223.960247
1834000 -223.960604
1836000 -223.960961
1838000 -223.961317
1840000 -223.961673
1842000 -223.962028
1844000 -223.962382
1846000 -223.962736
1848000 -223.963089
1850000 -223.963442
1852000 -223.963795
1854000 -223.964147
1856000 -223.964498
1858000 -223.964849
1860000 -223.965199
1862000 -223.965549
1864000 -223.965899
1866000 -223.966248
1868000 -223.966596
1870000 -223.966944
1872000 -223.967292
1874000 -223.967639
1876000 -223.967985
1878000 -223.968331
1880000 -223.968677
1882000 -223.969022
1884000 -223.969367
1886000 -223.969711
1888000 -223.970055
1890000 -223.970398
1892000 -223.970741
1894000 -223.971083
1896000 -223.971425
1898000 -223.971767
1900000 -223.972108
1902000 -223.972448
1904000 -223.972788
1906000 -223.973128
1908000 -223.973467
1910000 -223.973806
1912000 -223.974144
1914000 -223.974482
1916000 -223.974819
1918000 -223.975156
1920000 -223.975492
1922000 -223.975828
1924000 -223.976163
1926000 -223.976498
1928000 -223.976832
1930000 -223.977166
1932000 -223.977499
1934000 -223.977832
1936000 -223.978165
1938000 -223.978496
1940000 -223.978828
1942000 -223.979159
1944000 -223.979489
1946000 -223.979818
1948000 -223.980148
1950000 -223.980476
1952000 -223.980804
1954000 -223.981132
1956000 -223.981459
1958000 -223.981785
1960000 -223.982111
1962000 -223.982437
1964000 -223.982761
1966000 -223.983086
1968000 -223.983409
1970000 -223.983732
1972000 -223.984055
1974000 -223.984377
1976000 -223.984698
1978000 -223.985019
1980000 -223.985339
1982000 -223.985658
1984000 -223.985977
1986000 -223.986295
1988000 -223.986613
1990000 -223.986930
1992000 -223.987246
1994000 -223.987562
